Time,X Position,Y Position,Error,Linear Velocity,Angular Velocity
0.09592771530151367,-0.12024664324689058,-5.953633937210606,2.8830767226733185,0.14415383613366592,-0.07744556813961283
0.16729116439819336,-0.12024700618175709,-5.953633574006967,2.8830767434652063,0.14415383717326033,-0.07744539354676315
0.2582283020019531,-0.12024738015944939,-5.953633199743479,2.8830767648838194,0.14415383824419098,-0.07744521366714484
0.32596445083618164,-0.12024774318128668,-5.953632836435635,2.8830767856692416,0.1441538392834621,-0.07744503908191469
0.39089322090148926,-0.12024810624597189,-5.953632473076458,2.8830768064514802,0.14415384032257403,-0.07744486450044387
0.45093822479248047,-0.12024848035744189,-5.953632098652686,2.883076827860149,0.14415384139300744,-0.07744468463256336
0.510427713394165,-0.12024884350914651,-5.953631735189243,2.8830768486359166,0.14415384243179583,-0.07744451005873694
0.5633697509765625,-0.1207376707905856,-5.953078001032195,2.883061211009262,0.14415306055046312,-0.07745377630691075
0.6172235012054443,-0.12200850982998468,-5.951638336865155,2.8830213862738967,0.14415106931369484,-0.0774847964155689
0.6645064353942871,-0.12396412006867526,-5.949422729189802,2.8829624625410784,0.1441481231270539,-0.07753416091777726
0.7115335464477539,-0.12665408030681724,-5.946373048233313,2.882884947439747,0.14414424737198736,-0.07758435524538683
0.7583756446838379,-0.12988179105872721,-5.94270602103451,2.8827943263519984,0.14413971631759992,-0.07755452509987179
0.8179018497467041,-0.13302757582114125,-5.9391136164175995,2.8827015552411175,0.1441350777620559,-0.0775087580234852
0.8623273372650146,-0.13616452775292961,-5.935512618639972,2.882604375654845,0.14413021878274226,-0.07746281729469853
0.913245677947998,-0.13939410906770142,-5.9317995842908635,2.8825087662971534,0.14412543831485766,-0.07741551558857035
0.9577922821044922,-0.14258874803186317,-5.928234299905511,2.8824944160440005,0.14412472080220004,-0.07736420840129653
1.0092902183532715,-0.14596059230733885,-5.924742295307283,2.8826688618502145,0.14413344309251072,-0.07728242911223984
1.0585691928863525,-0.14977702992381647,-5.921232633332836,2.883171189813586,0.14415855949067932,-0.0771394420984019
1.1100687980651855,-0.15398659387212757,-5.917907826686415,2.8840992837012145,0.14420496418506074,-0.07693663386642503
1.1608364582061768,-0.15887180578667193,-5.91465565796201,2.8855907129020473,0.14427953564510237,-0.07666938054560253
1.2147340774536133,-0.16475725413682,-5.91137538223667,2.887824409682549,0.14439122048412745,-0.07635188425807132
1.274902582168579,-0.17128222828385675,-5.908270529549287,2.890668249524256,0.14453341247621282,-0.07610260074252138
1.337580680847168,-0.17843719631850502,-5.905256702818508,2.8940614578717714,0.14470307289358858,-0.07594158855544676
1.399383783340454,-0.1862454087032025,-5.9022707379297605,2.8979825650717204,0.14489912825358603,-0.07586292329796245
1.4638938903808594,-0.19404533843482577,-5.899508884324657,2.9020628781499367,0.14510314390749685,-0.07586509422064333
1.5134658813476562,-0.20188229228432217,-5.8968999107452555,2.906288853582971,0.14531444267914856,-0.07593635907906619
1.5634543895721436,-0.2098307493164408,-5.894388029365167,2.9106799800779375,0.14553399900389688,-0.07607093023867176
1.6094508171081543,-0.21729111379373528,-5.8921326393203834,2.914883498201975,0.14574417491009875,-0.07624764960330709
1.6598219871520996,-0.22440127216320105,-5.8900640858142985,2.9189558523702113,0.14594779261851057,-0.07645441175863016
1.7180452346801758,-0.2312903599466823,-5.8881308226040225,2.922959916532955,0.14614799582664775,-0.07668057145255192
1.777700662612915,-0.23753256731406186,-5.886425292659251,2.9266281578935844,0.14633140789467922,-0.07686987223633518
1.827233076095581,-0.2434093889938224,-5.884783265518987,2.930067174077422,0.1465033587038711,-0.07690185700304275
1.8791799545288086,-0.24923456971804325,-5.883019937918396,2.933397388049037,0.14666986940245186,-0.07685770704172432
1.9290175437927246,-0.25476231374020625,-5.881197164208789,2.9364699661481772,0.14682349830740887,-0.07681460728225992
1.9772801399230957,-0.2602160336978563,-5.879298435464792,2.93944537770738,0.14697226888536902,-0.07677151940645831
2.0223090648651123,-0.26582265650435205,-5.877315378408506,2.9424930485453165,0.14712465242726583,-0.07672738775290999
2.0677225589752197,-0.271334949616571,-5.875418579189594,2.9455317517418185,0.14727658758709092,-0.07668022212806846
2.110081672668457,-0.27703092361681664,-5.87357740226509,2.9487560274437175,0.14743780137218587,-0.07660360730281379
2.1567251682281494,-0.28323831572780894,-5.87174677773337,2.952391099831256,0.14761955499156282,-0.07645116876038151
2.1996426582336426,-0.28974467137360205,-5.87004182078456,2.956346913264246,0.1478173456632123,-0.07619058467539286
2.2436470985412598,-0.2968758523799649,-5.868413940842676,2.960846050638474,0.14804230253192371,-0.07578874301539965
2.287531852722168,-0.30493546940103594,-5.866828298452571,2.9661044172460103,0.14830522086230052,-0.07528454929458235
2.3342301845550537,-0.3134178153394697,-5.865398075422862,2.9718028144749713,0.14859014072374857,-0.07483740212694674
2.386009454727173,-0.3225185529527771,-5.864091861177189,2.97807503191523,0.1489037515957615,-0.07455619692619891
2.4347333908081055,-0.3324021303343885,-5.862897699260878,2.985043975471696,0.1492521987735848,-0.07448362146123315
2.4868359565734863,-0.34228256765981124,-5.861925342557509,2.992165371101827,0.14960826855509135,-0.07460713607570225
2.529581308364868,-0.352263426952932,-5.861165658067603,2.9995134333005686,0.14997567166502843,-0.07490099954136575
2.5774829387664795,-0.3624839283903511,-5.860627603368583,3.007202252978642,0.15036011264893212,-0.07535491975687947
2.6194610595703125,-0.3722361924822776,-5.860311704072589,3.014674806547511,0.15073374032737555,-0.07585976253012741
2.672435998916626,-0.3817854123808234,-5.860104836834301,3.02206746361567,0.1511033731807835,-0.07627476685248641
2.7248342037200928,-0.39133870666979204,-5.860002739086365,3.02953973392427,0.1514769866962135,-0.07656906018853489
2.7913436889648438,-0.4002933206899727,-5.860009310850401,3.036616976472186,0.1518308488236093,-0.07669959844534686
2.841562271118164,-0.40896299463761426,-5.8600372640188,3.0434916351243624,0.15217458175621812,-0.07668359061969544
2.8906774520874023,-0.4177218664360033,-5.859961220561152,3.0503827244190393,0.15251913622095198,-0.07664204526112983
2.934751272201538,-0.4261406068179949,-5.859793030336506,3.0569573696306973,0.15284786848153487,-0.0766017403842701
2.981327533721924,-0.43454268403565394,-5.859578728140413,3.063499816638454,0.1531749908319227,-0.07656187037070317
3.0338218212127686,-0.44325464609065063,-5.859358781559425,3.0702945044743997,0.15351472522372,-0.0765195661039059
3.084155559539795,-0.4518613859394402,-5.859182030884483,3.077041124168577,0.15385205620842887,-0.076463113175926
3.1276707649230957,-0.4607387587783563,-5.85902266898693,3.084023430968276,0.1542011715484138,-0.07634904483138302
3.1762032508850098,-0.4703020060383221,-5.858839429097294,3.091549130161724,0.15457745650808621,-0.0761202969443364
3.222975730895996,-0.4801273129681449,-5.858636405813726,3.0992839136721178,0.1549641956836059,-0.07575869589818184
3.2680368423461914,-0.4905005866127173,-5.858444149680273,3.107476118878329,0.15537380594391648,-0.07530682095950514
3.31583571434021,-0.5017134687585825,-5.85829626277629,3.1163817609555515,0.15581908804777758,-0.07486739881153243
3.365826368331909,-0.5130825710487368,-5.85822068501286,3.125470864224876,0.15627354321124381,-0.07459902148883216
3.411468029022217,-0.5249183767170502,-5.858227474848163,3.134999546629001,0.15674997733145005,-0.07461245493770073
3.462327480316162,-0.5375184084881426,-5.858388803488382,3.1452517575461547,0.15726258787730774,-0.0749635026048794
3.5089590549468994,-0.5499625309900973,-5.858769318492279,3.15552409099054,0.157776204549527,-0.07557741006750354
3.552990436553955,-0.5625148953812014,-5.859285623007954,3.1659794088045814,0.1582989704402291,-0.0762928509801276
3.601470947265625,-0.5754386386217484,-5.8598854282755015,3.176799960277227,0.15883999801386137,-0.07706285769306873
3.6497409343719482,-0.5878551736361161,-5.8605221688692835,3.1872460119308763,0.15936230059654383,-0.07781040328878612
3.69968843460083,-0.6000583688567276,-5.8612269105794494,3.197572381374193,0.15987861906870968,-0.0785175829312762
3.7606828212738037,-0.6123487342386394,-5.862038528480082,3.2080451042375464,0.16040225521187734,-0.0791685282395587
3.8102543354034424,-0.6239784758572938,-5.862923787067281,3.218034816185721,0.16090174080928607,-0.07969767468691508
3.8625807762145996,-0.6353212543020511,-5.863921503008098,3.2278663979093225,0.16139331989546613,-0.08010675794383992
3.9127602577209473,-0.6467518932395255,-5.865080374738755,3.2378728184724412,0.16189364092362207,-0.08038492635842394
3.9575695991516113,-0.657683654912275,-5.866322658263736,3.2475287026193453,0.16237643513096728,-0.08048233988153325
3.9991633892059326,-0.6685780209369948,-5.867651935829717,3.257212367537078,0.16286061837685392,-0.08037654755074561
4.044841527938843,-0.6799885526880698,-5.8689868722357295,3.267330802218929,0.16336654011094645,-0.08015336787182442
4.085278511047363,-0.6914196079132234,-5.870199090863389,3.277405093259913,0.16387025466299565,-0.07982963881467764
4.130137205123901,-0.7033287987638044,-5.871323147575736,3.287831643633614,0.1643915821816807,-0.07937347363264616
4.180761337280273,-0.7160742498833425,-5.872440859467684,3.298953486044239,0.16494767430221197,-0.0788146300860042
4.223722457885742,-0.7288270906518612,-5.873558246885968,3.3100933212146635,0.1655046660607332,-0.07826426656759052
4.266356468200684,-0.7419104852879922,-5.874757150031681,3.321564011264444,0.1660782005632222,-0.07780741290793597
4.309432506561279,-0.7557244999393735,-5.876096473790897,3.3337299678493375,0.16668649839246688,-0.07756956454522579
4.350409984588623,-0.7694656219338495,-5.877507316617264,3.345889053005913,0.16729445265029566,-0.07768877197912315
4.391075372695923,-0.7835035173960225,-5.879020943903182,3.3583644142622218,0.1679182207131111,-0.07819514892094843
4.432374954223633,-0.798198862065851,-5.880567329879748,3.3714166686836067,0.16857083343418033,-0.07891334647875217
4.47183895111084,-0.8125446011278464,-5.882063036254954,3.3841643585633685,0.16920821792816843,-0.07972250175618112
4.513136863708496,-0.8268404047118354,-5.883584917104938,3.39689841085314,0.169844920542657,-0.0805948943808491
4.557848215103149,-0.841411181763903,-5.885209809970639,3.4099316021677724,0.17049658010838864,-0.0815151451651484
4.6038219928741455,-0.8553305700542009,-5.886867979910352,3.4224528393970632,0.17112264196985316,-0.08239101645007119
4.643329620361328,-0.8689985527378608,-5.88862731472157,3.434831266528874,0.17174156332644372,-0.08321606354373877
4.692431926727295,-0.8828336613181884,-5.890546201055603,3.4474475858459406,0.17237237929229704,-0.0839636121854263
4.738624811172485,-0.8960895546110713,-5.8924830989148544,3.459599252515488,0.17297996262577442,-0.08451951852899554
4.784744501113892,-0.909274521564243,-5.894466242358752,3.4717258799132957,0.1735862939956648,-0.08484626067424919
4.8302717208862305,-0.9229172203856544,-5.896533414965935,3.484291042853532,0.17421455214267662,-0.08488825863091887
4.877457857131958,-0.9363665428420221,-5.898543137284103,3.4966719202765613,0.17483359601382809,-0.08460043839566733
4.920013427734375,-0.9501328922534416,-5.900547468265242,3.5093253997150335,0.17546626998575168,-0.08398799452068031
4.968648910522461,-0.9646109867597964,-5.902626152277343,3.522627510558927,0.17613137552794636,-0.0831368528289007
5.009350061416626,-0.9789308463657376,-5.904629155694917,3.535766000197471,0.17678830000987356,-0.08230682274837074
5.05281400680542,-0.993458654045028,-5.906673362451794,3.549112286834597,0.17745561434172985,-0.08157205087775526
5.098652124404907,-1.0086108235280482,-5.908880040340467,3.563083228870797,0.17815416144353988,-0.08100979506366915
5.150398254394531,-1.0235135537629294,-5.911133926870633,3.576879519388947,0.17884397596944734,-0.08077644185321392
5.196855068206787,-1.03865009566207,-5.913501554080443,3.590944527744111,0.17954722638720555,-0.08095926679257097
5.245552062988281,-1.0544845274895394,-5.915999030956837,3.6056799657346925,0.18028399828673464,-0.08152819326639885
5.280306100845337,-1.070014654673212,-5.918375078642838,3.620103993294419,0.18100519966472095,-0.0822392011154755
5.324533939361572,-1.0855694352218752,-5.920746220077974,3.6345570268630074,0.1817278513431504,-0.0830529283375676
5.369296073913574,-1.1015099177371395,-5.923231458440204,3.649408583942866,0.1824704291971433,-0.0839512638775158
5.4075400829315186,-1.1168274053830844,-5.925724557927008,3.6637450986593243,0.18318725493296623,-0.08483673278441549
5.45159649848938,-1.1319751911529223,-5.928307764392413,3.677993941296458,0.1838996970648229,-0.08567096108271131
5.504454135894775,-1.1474476864437637,-5.931034754837836,3.6926037105668166,0.18463018552834085,-0.08637870002304336
5.5623674392700195,-1.162414096874759,-5.93371693490204,3.706767338859985,0.18533836694299927,-0.0868311070069279
5.610104560852051,-1.1774407079581222,-5.93640988738761,3.720996197869854,0.1860498098934927,-0.08697815585878008
5.660753488540649,-1.1931249342238441,-5.9391755835090105,3.735833078342706,0.18679165391713531,-0.08674874595724413
5.706549882888794,-1.2085977672780184,-5.941852968264832,3.7504523170599597,0.187522615852998,-0.08617137870099703
5.75941014289856,-1.2242307094183513,-5.9445505889403885,3.765227836466842,0.18826139182334212,-0.08536431136668295
5.801089763641357,-1.2403706292117167,-5.947404803019067,3.780527381395309,0.18902636906976544,-0.08448441925649391
5.849878787994385,-1.2561313242258931,-5.9501976664367415,3.7954791711693505,0.18977395855846754,-0.08374210076474548
5.899160146713257,-1.271949088706817,-5.953078219869443,3.8105334760395118,0.1905266738019756,-0.08319336460258486
5.951770067214966,-1.2883402391827883,-5.956154326066568,3.8261888709285725,0.19130944354642865,-0.08294493777221504
6.004761457443237,-1.3044148214347144,-5.9592371983856705,3.8415840107507147,0.19207920053753574,-0.08312099677838275
6.065202951431274,-1.320785599749062,-5.962266901341275,3.8572151082873543,0.19286075541436773,-0.08362420537717323
6.11320948600769,-1.3378826101492585,-5.965293900165931,3.873479112266677,0.19367395561333386,-0.08434680154209241
6.161984443664551,-1.354560021972219,-5.968203340491995,3.889331218929304,0.1944665609464652,-0.08518570307591616
6.210760593414307,-1.3712921107818568,-5.97085022439511,3.9051070540022645,0.19525535270011324,-0.08585770524675151
6.260653972625732,-1.3883967808765434,-5.973140503092192,3.921035091604949,0.19605175458024746,-0.0862018670664392
6.309288740158081,-1.4048602608015388,-5.974932882788351,3.936169875285393,0.19680849376426968,-0.08607531297002792
6.363458871841431,-1.4212385183252134,-5.976298641876954,3.9510288939916394,0.19755144469958197,-0.08537532655370371
6.430519342422485,-1.4381284730954496,-5.977264114035624,3.9661443208943785,0.19830721604471893,-0.08396533756316028
6.473742485046387,-1.4548849917634767,-5.977478653160467,3.980785365982176,0.1990392682991088,-0.08220119839792962
6.527804613113403,-1.4721036515747892,-5.976861720030361,3.9954331464060795,0.199771657320304,-0.0802385679230635
6.584913969039917,-1.4902641243659123,-5.9757549740325135,4.01067966500068,0.20053398325003402,-0.07826078588469515
6.634204626083374,-1.5080607024925454,-5.974617644971305,4.025618553241789,0.20128092766208946,-0.0766074233571325
6.691518068313599,-1.5259537687042752,-5.97356206278562,4.040705036835344,0.20203525184176718,-0.07526535814044577
6.743864059448242,-1.544456005454957,-5.972690876815608,4.056436572914365,0.2028218286457183,-0.0742274504410853
6.785532474517822,-1.5624944575202298,-5.972160803390281,4.071951005880517,0.20359755029402585,-0.07356038591902851
6.826436996459961,-1.580689264148659,-5.971973606778894,4.087788584579934,0.20438942922899672,-0.07327104652271577
6.870046138763428,-1.5997157278046057,-5.972083594002538,4.104517879451594,0.2052258939725797,-0.07341154341690348
6.913126230239868,-1.6184735153883587,-5.972304184141749,4.121084126337394,0.2060542063168697,-0.07368933618578265
6.957097768783569,-1.6374391180149634,-5.972622957031625,4.13789858114885,0.2068949290574425,-0.07396851295330413
7.011361360549927,-1.6571208397146726,-5.973132630429606,4.155452467968008,0.2077726233984004,-0.0742101489971259
7.063382387161255,-1.676332661547274,-5.973881848895654,4.172724696377535,0.20863623481887675,-0.07433096618168357
7.111839056015015,-1.6957055975396922,-5.974847870824151,4.1902582231391055,0.20951291115695528,-0.07430761800520831
7.16289496421814,-1.7160092825634876,-5.975841318113624,4.20864276251418,0.21043213812570902,-0.07422130244435925
7.211593389511108,-1.7361355979159117,-5.976698787429994,4.226824730485249,0.21134123652426245,-0.07406867235873145
7.2637128829956055,-1.7565539370928394,-5.977528251080746,4.245269775421838,0.2122634887710919,-0.07391107278380636
7.316622257232666,-1.7777389814708542,-5.978475891905636,4.26446698509629,0.21322334925481454,-0.07381450867649231
7.370677471160889,-1.7983903988896472,-5.979463822651304,4.283228530858746,0.2141614265429373,-0.07378475708721084
7.413434743881226,-1.8191589172323532,-5.980384291288675,4.302080517175189,0.21510402585875946,-0.07375583922916769
7.460506916046143,-1.8406685199234631,-5.981325470901258,4.3216183660259935,0.2160809183012997,-0.07372428018910343
7.510092496871948,-1.8617292104317402,-5.982170689979702,4.340731866738184,0.21703659333690922,-0.07371195977993715
7.561856746673584,-1.883062999726034,-5.982939209489693,4.3600718077083265,0.21800359038541633,-0.07377905527806816
7.60981297492981,-1.9054455460104707,-5.983641213378282,4.380335304090988,0.21901676520454938,-0.07400311723783377
7.649886608123779,-1.9275468680438272,-5.984302244429069,4.400349963119652,0.2200174981559826,-0.07432540376334949
7.698438882827759,-1.9500439713387403,-5.984621031086065,4.420584578145592,0.2210292289072796,-0.07433431001043321
7.741947174072266,-1.9731567978164744,-5.984364387344159,4.441134648014517,0.22205673240072585,-0.07394852859799352
7.802903175354004,-1.995596870256595,-5.983521870079413,4.460846708718831,0.22304233543594157,-0.07344895224487888
7.852347373962402,-2.01793590784889,-5.982546306452605,4.480435114674728,0.22402175573373642,-0.07296225003338568
7.900951862335205,-2.0408739914543084,-5.981510728004749,4.500560785058878,0.2250280392529439,-0.07256392360906254
7.940621376037598,-2.0628290764483217,-5.980749959890231,4.51995027716446,0.225997513858223,-0.07233034027227762
7.988217115402222,-2.0843242036285994,-5.980277966340397,4.539075349046284,0.22695376745231421,-0.07221993137677477
8.029784202575684,-2.105486904971139,-5.979644960921859,4.557852224260108,0.2278926112130054,-0.07224281546516692
8.077644109725952,-2.1251569778624666,-5.9782951410623335,4.57499418110649,0.22874970905532452,-0.0722267535457403
8.126487493515015,-2.1440157933004405,-5.97661163373181,4.5912809155754575,0.22956404577877287,-0.07221124407481916
8.165614604949951,-2.16261658147094,-5.974590076001496,4.607209868519168,0.2303604934259584,-0.07219971172637664
8.210619688034058,-2.1799794699610864,-5.9722863954534695,4.62191973047856,0.23109598652392804,-0.07217278263907764
8.253200769424438,-2.19676243031598,-5.969750072397425,4.636025263544338,0.23180126317721694,-0.07212092151628842
8.307622909545898,-2.213542038412232,-5.966878023594826,4.650004910660567,0.2325002455330284,-0.07208269391390938
8.355439186096191,-2.2293134448522167,-5.963824583327771,4.663013961901703,0.23315069809508515,-0.07207873069409546
8.412690162658691,-2.2445475374269837,-5.960569280241829,4.675469570011705,0.23377347850058527,-0.07207793743005152
