Time,X Position,Y Position,Error,Linear Velocity,Angular Velocity
0.06052970886230469,1.3370073849470618,-6.521484184992869,2.607190384836498,0.21015335553634737,0.023653279509595837
0.13103270530700684,1.3370066766075956,-6.521484303454244,2.60719067953018,0.21356965159174246,0.025157467508079012
0.19531464576721191,1.337005989071293,-6.521484418435265,2.607190965567954,0.21866190027363822,0.027399565367940727
0.2510406970977783,1.3370053015050947,-6.521484533420033,2.6071912516171096,0.22520703425030253,0.030281360688853075
0.3132941722869873,1.3374083769504976,-6.521416945294484,2.6070234120455344,0.23336125950467254,0.03387138143651769
0.3715367317199707,1.338554931036247,-6.521223973806214,2.6065455885811133,0.2430073079181242,0.03811675772450766
0.4298732280731201,1.3404695590019329,-6.5208988078768515,2.605745805361305,0.2541447288694261,0.043015714352701725
0.4971296787261963,1.3432735875937147,-6.52041588789618,2.6045701811837443,0.26699877030913827,0.04866505361969599
0.5600583553314209,1.3468241709922524,-6.5197930095945535,2.6030742353612464,0.28145782939395864,0.05501273484126527
0.6238610744476318,1.3511971029036842,-6.519008525672281,2.6012207041483832,0.29753755033058393,0.062061978050316394
0.6830306053161621,1.3565344146872262,-6.5180252409452315,2.598941914225711,0.31510681582532146,0.06975035810147173
0.7372786998748779,1.3624416946368698,-6.516903947693857,2.5963986740588254,0.33404605099964013,0.07801869034622085
0.7929472923278809,1.3689138174463715,-6.515635943409119,2.5935870854054626,0.3543869024752593,0.08687233701279587
0.8503715991973877,1.3759246642739733,-6.514222557752418,2.5905183061643595,0.376170432083602,0.09631706265503759
0.8992512226104736,1.3827987047821722,-6.5128445619678645,2.5875326532103964,0.39919999886672464,0.10625482319090127
0.9509875774383545,1.389790670216361,-6.511311530326139,2.584384071399607,0.4235252837941673,0.11669357002207328
1.0140900611877441,1.397421019366019,-6.509549829784196,2.5808800390703506,0.4494174091752176,0.1277379826974721
1.0705041885375977,1.4054710920583802,-6.507605908174265,2.5771208766933573,0.4767048631137374,0.13930945922152882
1.1250481605529785,1.4142804626754344,-6.505376158420325,2.5729316103590256,0.5053164415616211,0.15137133124414628
1.1775360107421875,1.424123060859012,-6.502760988135668,2.568160199981344,0.5351757398997355,0.16388706761930572
1.2362689971923828,1.4341972775350087,-6.499959961572429,2.5631879623262157,0.5664658590053314,0.17694063203704208
1.2912721633911133,1.4444290226052738,-6.49704482142518,2.558103193995434,0.599091151993751,0.19048275489684402
1.3492114543914795,1.455110255882239,-6.493793851070983,2.552628567748187,0.6330935389180988,0.2044614683247141
1.4090678691864014,1.4659769241424714,-6.490287525139665,2.546902550828078,0.6685230430676974,0.21888013465688172
1.4629290103912354,1.477529390123048,-6.48635923614176,2.5406608961710395,0.7051917760008863,0.23366299466975818
1.530505657196045,1.4900441446613435,-6.4818824284339005,2.5337315096440536,0.7434163291719885,0.2489593168739225
1.591421365737915,1.5024118693990798,-6.47730689336431,2.5267851890545123,0.7830724228897399,0.2647384739601094
1.646552324295044,1.5149164771319161,-6.472398167124764,2.5195354176831892,0.8239779101613334,0.28081309417610906
1.7000923156738281,1.5283227494939333,-6.466808807206334,2.5114985805203434,0.8660327575639895,0.2971111427715097
1.7569708824157715,1.5419130652309265,-6.460835566140858,2.503109131338449,0.9093405002221447,0.31372447474138243
1.811500072479248,1.5557484745086758,-6.45452309730117,2.494402343866421,0.9538300574914468,0.3306729317657615
1.867840051651001,1.570127477488231,-6.447585860073025,2.485048677197298,0.9994984986536315,0.3478005959113673
1.9246280193328857,1.5845300545162355,-6.440197359771255,2.4753138043963,1.0463602918753776,0.36509998183841963
1.9884586334228516,1.5993294869988504,-6.43224153900511,2.465022467250664,1.0945529369695857,0.38271360004861316
2.0457499027252197,1.6146700605223596,-6.423657999048527,2.454098053992495,1.1438836924612652,0.40050749643914035
2.1017770767211914,1.629783686228114,-6.414609300262814,2.442825861967758,1.1943246710903415,0.41834818244624833
2.1555070877075195,1.645252702562467,-6.404880471784584,2.430904302643376,1.245769260883256,0.4363011665677361
2.2132534980773926,1.6612754283065894,-6.3944030739510955,2.418243249967906,1.2982782299911533,0.45436650360736175
2.271104097366333,1.6769443882374797,-6.383450036253807,2.405244063210536,1.3518638915217989,0.47239307528598934
2.327658176422119,1.6928450695046708,-6.371771781265199,2.3915780425763833,1.4064383717246118,0.4904863703810516
2.381131410598755,1.7092465144851405,-6.359216086304653,2.377065024608642,1.461878372238506,0.5085141384013474
2.4407429695129395,1.7252188675954199,-6.346111687032818,2.362148327001824,1.5183390056507253,0.5264348832627278
2.491445541381836,1.741271321128953,-6.332363499303933,2.346669985778922,1.5755667430845277,0.5443232831751754
2.5536997318267822,1.7577565710458678,-6.317488851373607,2.3301151162791114,1.6337464970002178,0.5620091309254862
2.6084885597229004,1.773721883186777,-6.302114036773459,2.31320790774585,1.6927336839537128,0.5795618000830648
2.660289764404297,1.7896196381376879,-6.286156375021809,2.295815948134819,1.7524176838626226,0.5968968449928338
2.714184284210205,1.8058613285611094,-6.268742325260358,2.277033500450934,1.8127179734633527,0.6138908755431373
2.770346164703369,1.8215051275033487,-6.2511528706648285,2.2582182504377415,1.8737732161539309,0.630706827355
2.8271119594573975,1.8369609780485454,-6.232723097117846,2.238667941228085,1.9354988405161562,0.6471266695904587
2.886317491531372,1.8526999192746605,-6.212948916412969,2.217845851369077,1.9978471460707041,0.6632879304778247
2.938645124435425,1.8677412812076812,-6.192964691892414,2.196949364137321,2.0607359724677,0.6789701087896378
2.993293046951294,1.8825458724117592,-6.1722041524655875,2.175377289592832,2.1241256236584807,0.694335642733316
3.04902720451355,1.8975089485012715,-6.150024604766614,2.152466077953181,2.187922003012027,0.7091324957602129
3.110405921936035,1.9117378269401446,-6.127722719417165,2.129552577871048,2.2523266524982986,0.7235971957320746
3.1603596210479736,1.9256332756632855,-6.104665852334149,2.1059792875690877,2.3169973083061093,0.7374478270267144
3.232196569442749,1.9396327057015985,-6.080038450400699,2.0809142618969796,2.3822513456384193,0.7508717947456576
3.289858102798462,1.9526403308310905,-6.054980966512923,2.05552662619441,2.4478442440492505,0.763782469804533
3.348285675048828,1.9647553326694416,-6.029192108950372,2.02949816496633,2.513715363483951,0.7761245695554413
3.411247730255127,1.9767324732702836,-6.002490739922067,2.0026259114656795,2.5798801141542724,0.7875524389653112
3.470876932144165,1.9875944191513883,-5.97637943932816,1.9764183733803133,2.6463825605117597,0.7978437161750005
3.5598833560943604,1.9978322094335348,-5.9499339864586185,1.9499351914518441,2.713679324292603,0.8070177152928232
3.6439807415008545,2.0072199104428274,-5.923199512095584,1.9232130642317027,2.7816230677936233,0.81480201976701
3.6999051570892334,2.0153961993318408,-5.898356419571927,1.8984188522778138,2.849879227855893,0.8211915558541847
3.758270025253296,2.0228590076760464,-5.873470152180952,1.8736096032377854,2.918309796041444,0.8260047431858357
3.8102896213531494,2.0295742103617256,-5.8485386630665195,1.848775222348643,2.9867667359896113,0.8293416524912547
3.8623576164245605,2.035195720986276,-5.82472043518892,1.8250598361072397,3.0553598426744926,0.8313304814253549
3.9154396057128906,2.0399047975027096,-5.801325653588445,1.801767605197621,3.1240435866185354,0.8318136113807854
3.965749502182007,2.04376477064487,-5.777672335416305,1.778210979398693,3.1926784496178704,0.8307593800240302
4.016972780227661,2.0465358658312285,-5.755178848691402,1.7557956537428663,3.2614150570526754,0.8282829462501671
4.072578430175781,2.048331542633669,-5.733164514358697,1.7338382773043077,3.3302703906332174,0.824235146541467
4.124960660934448,2.0491166043589377,-5.711010105665187,1.7117149361129456,3.3991080910799067,0.8185435048182542
4.175235986709595,2.04884832126807,-5.690045409332432,1.6907512070367827,3.46802384559574,0.8113166826539199
4.233755350112915,2.0475668292921645,-5.6696392546619,1.6703166897199029,3.537106206425235,0.8024175873832732
4.293077230453491,2.0451510147925664,-5.649215148561358,1.6498330886429269,3.6062961270080938,0.7916895226512722
4.359303712844849,2.041770334378806,-5.630000093394539,1.630535208236953,3.675832278447532,0.7791377803755005
4.429225921630859,2.0374999012207327,-5.611412545754045,1.611848825170989,3.74572979378423,0.7645452768399184
4.4950549602508545,2.0321908105129425,-5.592924136988926,1.5932493698361831,3.815859272185433,0.7476018391342572
4.564456462860107,2.026134742863682,-5.5756461144601674,1.5758628439042448,3.8863979235352764,0.7281908151286437
4.6274309158325195,2.0192037479605376,-5.55904203051562,1.5591602986383406,3.9572107856005814,0.706128473239065
4.695416212081909,2.0112250772990534,-5.542642324377097,1.5426831636210792,4.028328010164922,0.6810870900488528
4.75926661491394,2.0027277946064976,-5.5274041995744065,1.5274066353597358,4.099799241974671,0.6529958692458554
4.817537307739258,1.9934880317560628,-5.5128432544634105,1.512857269641077,4.171517756094983,0.6215984048667763
4.877902269363403,1.9831472507201675,-5.498594691691629,1.498689449193734,4.243488937112127,0.5865001311913218
4.946818113327026,1.9723052868052362,-5.485531551796005,1.485789685157488,4.315956269260542,0.5475497025596456
5.013383388519287,1.9606483076352472,-5.473274740696545,1.4738001958428564,4.388884364313721,0.5044552097270857
5.094496965408325,1.9477948636024371,-5.461545130082987,1.4624771941933263,4.462484380459727,0.4566642401716018
5.165093660354614,1.9344226697439422,-5.4509905457077625,1.4524716692510125,4.536705460571273,0.40422138734799384
5.234116077423096,1.920557701411144,-5.441528555452818,1.4437159190751374,4.611570767589832,0.34708781852113274
5.301185369491577,1.9058029897220181,-5.432879873675549,1.4359727745085442,4.687074894656633,0.2849805649816848
5.4040350914001465,1.890961446159132,-5.425494479771627,1.4296586718804913,4.763829022762057,0.21757962070904202
5.755763530731201,1.8756130150412926,-5.419093521339951,1.4245345009286856,4.845411926373049,0.14148006796111215
5.99852180480957,1.8592824327631148,-5.413526636541444,1.4205136345495717,4.930300077171468,0.057493205365416314
6.1040098667144775,1.8429367637654779,-5.409121947552897,1.41784820176623,5.016632436679646,-0.032489319970642944
6.1709442138671875,1.8261036982854384,-5.405710664758463,1.416425923501008,5.1039255079884285,-0.1280296650933513
6.216520309448242,1.8082490383858942,-5.403252675852212,1.4162932265482056,5.191959048301913,-0.2290051939138546
6.311483144760132,1.790419298489537,-5.401907957733833,1.4174872106664895,5.281519033411722,-0.3360105820615311
6.495567083358765,1.772094507322666,-5.401614197721704,1.420022278996902,5.373960338609039,0.08308944858776166
6.552952766418457,1.7526947026570872,-5.40243949346317,1.4240774006068277,5.467603867756838,0.3743884541069377
6.633729457855225,1.7333595610109593,-5.404368758194862,1.4294574959396478,5.562860618379132,0.6648184796302605
6.779104232788086,1.7135683961873502,-5.407455304670398,1.4363055031251288,5.660777106112095,0.9571599479354832
6.854346513748169,1.6927432367653719,-5.411864251487592,1.4449108564828623,5.760504731298815,1.2480880221873643
6.94277286529541,1.6721800097255115,-5.417106103448808,1.4545293584027206,5.862258881065344,1.538061122894916
7.002591609954834,1.6509387570084775,-5.423375593351085,1.46555171560281,5.965767271117703,1.8254662463343414
7.071415424346924,1.6284036707477831,-5.4309884475395735,1.4784491093390535,6.071346340975524,2.1101708920217317
7.146080017089844,1.6059485915631546,-5.439571918521313,1.4925293367589783,6.179130099852455,2.3923766094583705
7.211541652679443,1.582977531810333,-5.449420242472314,1.508219738056595,6.289151226580149,2.6714203095851166
7.274937868118286,1.5588115275268635,-5.4609767538159995,1.5261390314889123,6.401610436376655,2.9467718643241048
7.341245889663696,1.534649158064442,-5.473909422622465,1.5456262136058059,6.516637631821908,3.2185326292687653
7.396406650543213,1.5100671506833814,-5.488450824710015,1.5670099088453222,6.634250752553575,3.4860343560092004
7.466701507568359,1.4844603980137547,-5.504990049941406,1.5908413282407432,6.754940639543981,3.7493742215532726
7.533643960952759,1.4594427256401248,-5.522473070310196,1.6155885666478118,6.878633109101651,4.008555867017569
7.60483717918396,1.4343259469248557,-5.541370697768553,1.6418924332190514,7.005600664631001,4.263544912162734
7.677586793899536,1.4084157633223882,-5.5623233271972135,1.6705765734589972,7.136155362236064,4.51404364306549
7.7387542724609375,1.3833078949591437,-5.584084902982925,1.699892388440558,7.270051122272271,4.759927748014537
7.825201749801636,1.3583049316847875,-5.607226937752775,1.7305926701966083,7.4079295127229186,5.001927920927068
7.902284145355225,1.3327061443768082,-5.6324787805457195,1.7635952082846291,7.549934020302482,5.239505468286334
7.974916219711304,1.3080587980523335,-5.658316816417199,1.7968854416920559,7.695897347514207,5.472881687710955
8.058688879013062,1.2836581024375509,-5.685446571188344,1.831359019562772,7.846238759388172,5.702417198686326
8.127573728561401,1.2588344308400186,-5.714721439059283,1.868046041851693,8.001000540506256,5.927574165352968
8.197236776351929,1.2350974799468806,-5.744374966015646,1.9047099220736208,8.160067233139051,6.148812194390232
8.263399362564087,1.2117386560550072,-5.775201093829556,1.9423426242276662,8.323581377340615,6.366184871453651
8.317081451416016,1.1880832076091157,-5.808153614037134,1.982076781994545,8.491611050350057,6.579396805644055
8.380349159240723,1.1655784120691606,-5.841273700604892,2.0215212655186825,8.664177149410756,6.789200033805715
8.444794178009033,1.1435517456426978,-5.875472059548182,2.0617708550024587,8.841509421696593,6.995854319525573
8.504282236099243,1.1213614891535983,-5.911782399904575,2.104024138960216,9.023821835506048,7.199383499596335
8.561271905899048,1.1003321151633223,-5.948048591048452,2.1457622459378767,9.210865424393127,7.400256674018362
8.624136447906494,1.0798487364777616,-5.985313151751128,2.1881834151363018,9.402971041380816,7.598903935620969
8.690994262695312,1.059192187373821,-6.024959837169132,2.232841616068299,9.600599834202944,7.795729860537208
8.744679927825928,1.0401093144090419,-6.0645057157969,2.27674635803867,9.80320639533949,7.991214734769592
8.81972861289978,1.0227304437973321,-6.104586430575961,2.3204180289863774,10.011354701856703,8.186086524562667
8.891696691513062,1.005984126822153,-6.146385929282561,2.365383713808751,10.225274702064814,8.380056823284178
8.9545316696167,0.9902180091466345,-6.185837567090914,2.407809282056557,10.444276792230362,8.57384862157393
9.010983943939209,0.9753780643024983,-6.2254048808479165,2.44995448831488,10.668413414306901,8.767235118236517
9.077960968017578,0.9612108671183411,-6.266624640414266,2.49332511380408,10.898226144982951,8.960297224587217
9.134496450424194,0.9483066990725805,-6.306457802199184,2.534917433081619,11.133105473471181,9.15318439507177
9.19635534286499,0.9364195859015281,-6.346428539914687,2.5762240178563753,11.373328715363465,9.346019744344149
9.264841556549072,0.9251438163929316,-6.387645996999794,2.6184287697830335,11.619298372309093,9.539026232866624
9.331944465637207,0.9151721261234435,-6.4276929832798935,2.6590495928067908,11.870689069465476,9.732294350461121
9.407629251480103,0.906144987557364,-6.467759896074973,2.6993254144178027,12.127853662473761,9.926115214582543
9.477704286575317,0.8978400369161788,-6.50905774088443,2.7404611530392122,12.390877325737003,10.120400490003691
9.545397281646729,0.8907541740906797,-6.549140764556957,2.7800260681913174,12.659407051691378,10.315268185513519
9.606502771377563,0.8846131693118113,-6.589213937172651,2.819240428647713,12.933374610437728,10.51065521253698
9.667979955673218,0.8792997252053838,-6.630482941615586,2.8592673208455546,13.21301015327202,10.706663354171607
9.729441165924072,0.8751014753739198,-6.6705073750585555,2.897758846237566,13.498025217378425,10.90341183764874
9.797655820846558,0.8718745028280899,-6.710497262777536,2.9358921214673206,13.788724484729523,11.101145537817764
9.879758596420288,0.8695397468875197,-6.751651299471053,2.9748151636274596,14.085742884958432,11.300233755389723
9.932575225830078,0.8682577955588465,-6.791544786632241,3.012235500933977,14.38792906905238,11.500220388163193
10.009101867675781,0.867925677682576,-6.831380524130811,3.0493127002125773,14.69610405942292,11.701676131735192
10.07447862625122,0.8685056476641513,-6.872360838512305,3.0871890541376046,15.010152369147981,11.904413317440014
10.129452466964722,0.8698630772100693,-6.91206959479916,3.1236771262739107,15.32948280464625,12.108128958756724
10.195155143737793,0.8720018260931789,-6.951707971739307,3.159898705776262,15.654537106445293,12.313021285991175
10.272054672241211,0.875029195911809,-6.992468715779444,3.196940463156846,15.985891919250212,12.519219871063651
10.351459980010986,0.8787559570708194,-7.031945744417044,3.232627909440367,16.323371099301283,12.726762400934518
10.41897177696228,0.8832728092880369,-7.071335594124223,3.2680547654850933,16.666702951456422,12.93533800105969
10.500637769699097,0.8887412923332797,-7.111815920244947,3.304284224587076,17.01657222548978,13.145168380397662
10.575138568878174,0.8948440220098807,-7.151000411978004,3.3391875257273065,17.372488197501355,13.356096375539224
10.645063638687134,0.9017319802168116,-7.190071458870394,3.373832917614322,17.734406489995337,13.567948108725716
10.714050531387329,0.909643544819261,-7.230198856783978,3.4092611888388404,18.102510718212464,13.78066794215868
10.78115463256836,0.9181175815489642,-7.269015042930455,3.443389161605041,18.4764780661475,13.994190462077219
10.8513503074646,0.9273732321359697,-7.307688508135068,3.4772591864839795,18.856517243561687,14.208508592778017
10.9150390625,0.9377246313610186,-7.34737746516043,3.51188907186445,19.2426116984178,14.423458411724981
10.980093479156494,0.9485639146685803,-7.385737946712917,3.5452417809437002,19.63455077675387,14.639048234246248
11.032573223114014,0.9601812337743598,-7.423925051329059,3.578335622005531,20.031980781705347,14.854970801971362
11.092227697372437,0.9729634980989759,-7.4630794423112095,3.612163229976687,20.43535636061282,15.071328570387966
11.1494460105896,0.9861554722658106,-7.500888443227557,3.644736014904348,20.844330057617306,15.28807926745556
11.21079683303833,1.0001215084406818,-7.538492400509522,3.6770484721236105,21.259141487856965,15.505249686484483
11.26706838607788,1.0153200031976213,-7.577008382196498,3.7100651830401494,21.679798406071487,15.722691398105624
11.326483964920044,1.0308526141528787,-7.614161983852806,3.7418462690256473,22.106160510603477,15.940492316485868
11.387717008590698,1.0471519105697904,-7.6510782609984345,3.773366129792622,22.538382356023632,16.158660308930344
11.450456619262695,1.0647461049907214,-7.688849093470802,3.805562702483088,22.97671238820553,16.377163212690224
11.508836507797241,1.0825997104493994,-7.725240014140512,3.836539645855511,23.420731619073663,16.595937261497365
11.577346801757812,1.101214008724272,-7.761356349706699,3.867249390405589,23.87091327225379,16.815172322276467
11.650698184967041,1.1211821975452758,-7.798268478200402,3.898610542539758,24.327637512143138,17.03492221376702
11.711941242218018,1.1413275161930774,-7.833791696763179,3.9287755355348883,24.79018659384323,17.254981458717204
11.782407283782959,1.1622232875585954,-7.869002396829063,3.958667625171146,25.25900430362306,17.47550691504413
11.871918678283691,1.1845357801147551,-7.90494079778487,3.9891784277113738,25.735037186695806,17.69682969099963
