Time,X Position,Y Position,Error,Linear Velocity,Angular Velocity
0.06764698028564453,-0.0070707730683844065,-6.000453694101999,2.8237531559618634,0.7036205472827202,0.0
0.15045905113220215,-0.0070737243859225005,-6.0004549132269505,2.8237519366769535,0.2946926608519978,0.0
0.19901108741760254,-0.007076589409304931,-6.0004560968077785,2.8237507531182455,0.3059317182212731,0.0
0.2627830505371094,-0.007079454934409974,-6.0004572806965015,2.823749569426469,0.3207722847957794,0.0
0.31737446784973145,-0.007082407818390759,-6.000458500782746,2.823748349726104,0.3386958820359554,0.0
0.3721919059753418,-0.006915606471573063,-6.000387448066142,2.823815741529031,0.3597244975799817,0.0
0.4293181896209717,-0.006418496546062351,-6.000169766919989,2.8240124481691695,0.3839949376427892,0.0
0.47152018547058105,-0.0055613223809655435,-5.999782527201133,2.824343427220159,0.4106651718462311,0.0
0.5247929096221924,-0.004403383525467164,-5.999240897700834,2.824777871395243,0.44035834321603107,0.0
0.5705780982971191,-0.0029426670300518615,-5.998527257897407,2.8253051501966953,0.4726531786305825,0.0
0.6150197982788086,-0.0011636907473214783,-5.997607659263464,2.825912764317916,0.5074744244614922,0.0
0.6585390567779541,0.0007491573488462092,-5.996537919201604,2.826510366767118,0.5447607292079297,0.0
0.7029531002044678,0.002709136559525743,-5.995302433276685,2.8270259436197014,0.5845558796935968,0.0
0.7515411376953125,0.004515609485250805,-5.993820070877068,2.8272603883799357,0.6270711590247969,0.0
0.8325481414794922,0.0057944256882058376,-5.992190935394473,2.8270189248021995,0.6741135798867828,0.0
0.9134840965270996,0.006679317676522991,-5.990417610241258,2.826397733361184,0.7256849483924421,0.0
1.005183458328247,0.007622036147777293,-5.988593605842799,2.82578321341624,0.782432793990209,0.0
1.0852994918823242,0.008909640443029672,-5.986845382314289,2.8254685481683492,0.8437341332286449,0.0
1.1587145328521729,0.010751781192970586,-5.985071170696143,2.825531857597727,0.9092236064169348,0.0
1.2353980541229248,0.012881959357611763,-5.98288737963534,2.825515199503348,0.9790339789784095,0.0
1.3031518459320068,0.014794039593890378,-5.9803915635520335,2.8251275664952082,1.0526237800024139,0.0
1.3688561916351318,0.01627334638266598,-5.977759936496017,2.82433931632548,1.129864458315972,0.0
1.4252548217773438,0.017625477665452624,-5.97489582493052,2.8233005662615427,1.2102375085051438,0.0
1.4753637313842773,0.019285095388803724,-5.972165831659359,2.8225786727784965,1.2934543183971012,0.0
1.538916826248169,0.021182381522083453,-5.969088569286488,2.821788087909861,1.3802249589872329,0.0
1.5933048725128174,0.022937996043742134,-5.965625917442509,2.8206317347642487,1.4699897291091306,0.0
1.6287841796875,0.02432489829300262,-5.962175760716931,2.8192241857990012,1.5616857451296013,0.0
1.7303073406219482,0.025462936253985345,-5.958559380736575,2.817526389230428,1.6590185269521305,0.0
1.8365819454193115,0.026647573135446093,-5.954765016046983,2.815742646915189,1.762267094702238,0.0
1.893275260925293,0.02745555244333675,-5.950746709119467,2.8135366960951025,1.8685805488562455,0.0
1.9593713283538818,0.027839396630019768,-5.946662521804308,2.8109833852803736,1.9784790429970094,0.0
2.02290940284729,0.028182655330961794,-5.942147505860106,2.8081064470393535,2.0918010573820283,0.0
2.085336923599243,0.028538365011383834,-5.9373108186305545,2.8050206962348865,2.208480171299978,0.0
2.1395747661590576,0.02844172188725859,-5.932341202097797,2.801520719255474,2.328009873447609,0.0
2.2028651237487793,0.028067407884277105,-5.927032822747463,2.797590554543053,2.450869667372121,0.0
2.2632522583007812,0.027746272193084696,-5.921389103530399,2.7934729337436406,2.576904231578304,0.0
2.325697422027588,0.026822278327187667,-5.915531840699279,2.7887758570125674,2.7061494972880538,0.0
2.387172222137451,0.02547603481036075,-5.90915454990748,2.7834195269530486,2.838501658279571,0.0
2.4394919872283936,0.024223391452228227,-5.9022381317469055,2.7777671335758725,2.973462499836795,0.0
2.4923362731933594,0.02255028746403299,-5.894979357745365,2.771580132632264,3.1109963399837794,0.0
2.554555892944336,0.020768831871720073,-5.886879688064223,2.7647462142289907,3.251564995041929,0.0
2.608341693878174,0.019037781827109315,-5.878340958972902,2.7576581228645027,3.3947140562724316,0.0
2.659499406814575,0.016880156121760498,-5.869450241074799,2.7500272304128845,3.540223364526059,0.0
2.7128114700317383,0.014731065423038819,-5.859452621919808,2.7416610511048045,3.688136790972072,0.0
2.76767635345459,0.012189975290190561,-5.849344773315836,2.7329443073814983,3.8385425680041534,0.0
2.8179433345794678,0.009549050560760282,-5.8385206067162585,2.723682325075737,3.9911186457715466,0.0
2.8716557025909424,0.006424488066091181,-5.82678835570817,2.713465482157869,4.145937023641362,0.0
2.9257516860961914,0.0030830892585561884,-5.814805119754908,2.702935346093618,4.303045949974606,0.0
2.976163625717163,-0.0006515294031256306,-5.8021636161768235,2.691688690459873,4.4621376059693105,0.0
3.0260696411132812,-0.004978599299097126,-5.788597635219431,2.679401405158834,4.6230671667461065,0.0
3.089923858642578,-0.0096564709248684,-5.774737416522559,2.6666758823179872,4.786590543933308,0.0
3.144944190979004,-0.014918261420087325,-5.760256965891294,2.653121575580786,4.952111584218453,0.0
3.199664831161499,-0.021005335935466753,-5.744628136885698,2.638209092624987,5.119444525269973,0.0
3.252925395965576,-0.027518585605660333,-5.728882995943546,2.6229219095874403,5.288558803998774,0.0
3.2982633113861084,-0.03466505262942905,-5.712654513752711,2.6068615112494222,5.4589133794585765,0.0
3.3538930416107178,-0.04273503026914534,-5.695059022061134,2.5892298565415874,5.630826336754578,0.0
3.3968887329101562,-0.051351398797434104,-5.677437662218099,2.5711920351456516,5.803703089406781,0.0
3.4465737342834473,-0.06062333048192828,-5.659108214900049,2.552219021757309,5.97773206105405,0.0
3.4956846237182617,-0.07096504874369179,-5.639882786246342,2.5318750750768673,6.15270725336317,0.0
3.54058837890625,-0.08165067219718362,-5.620411965654898,2.511135018655725,6.328450776342744,0.0
3.582674264907837,-0.0930647958508982,-5.6003357488106085,2.489473113280075,6.504662125971911,0.0
3.6288881301879883,-0.10555613950812422,-5.57885487271431,2.4661103482304036,6.681306703871264,0.0
3.681959390640259,-0.11844131908525046,-5.557226420370321,2.442379412381503,6.858788374577016,0.0
3.7315969467163086,-0.13216156187382544,-5.535002661524638,2.4176545662747913,7.036748331759371,0.0
3.7920148372650146,-0.14715399311494973,-5.511306344016382,2.3910426994710985,7.215420612321757,0.0
3.8452765941619873,-0.1625241260389276,-5.4875830408981665,2.364153313758827,7.394548392145223,0.0
3.888415813446045,-0.1787495562286783,-5.463234258440578,2.336237931806473,7.573440281518677,0.0
3.942397117614746,-0.19634379307621003,-5.437346990849158,2.306326534746943,7.752294163522969,0.0
3.9884610176086426,-0.21424853584789588,-5.411479020481858,2.276220840995401,7.930856345093728,0.0
4.028433561325073,-0.2330091525696582,-5.384962061620374,2.2450782986413538,8.10862324133123,0.0
4.07616925239563,-0.2532097849554546,-5.35684557828836,2.2118557771012206,8.285614761919115,0.0
4.122159242630005,-0.2736257159240567,-5.328761971570763,2.1785262325277026,8.461887098052298,0.0
4.166992425918579,-0.29486637940461746,-5.29996888982105,2.144154793522915,8.637141859417142,0.0
4.2172791957855225,-0.31759739886884863,-5.269528452712686,2.1076482165057646,8.811257941942428,0.0
4.263329029083252,-0.3404695413708283,-5.239170470140444,2.0711312843917056,8.984205442011751,0.0
4.307976007461548,-0.3641376188263084,-5.2080311252159515,2.033564587031791,9.15565817218827,0.0
4.365030527114868,-0.3893717604103945,-5.175171044330975,1.993777898763417,9.32573358516508,0.0
4.417123317718506,-0.41468678310552204,-5.142523186692052,1.9541180178764226,9.49440056435531,0.0
4.46858549118042,-0.4408016873594014,-5.109086051478431,1.9134187329817032,9.661334847638642,0.0
4.518531560897827,-0.4650877055295187,-5.0779898228337625,1.8756379740903637,9.827066825166575,0.0
4.569796085357666,-0.4809693187505706,-5.0575934818401365,1.8509344081862675,9.99379387939042,0.0
4.618925333023071,-0.4934364994296888,-5.042126474098031,1.8318736772132145,10.161126352747129,0.0
4.675429582595825,-0.5063037697423441,-5.028674314299406,1.81364254283618,10.32889667234679,0.0
4.729353666305542,-0.5192798803146741,-5.018772420610135,1.797339511009748,10.497275974771558,0.0
4.782585620880127,-0.5319626783217254,-5.012718936331482,1.7834610233601098,10.666484680133214,0.0
4.828511714935303,-0.5427443151593198,-5.008631768079332,1.7722675234228378,10.836519456821131,0.0
4.875105381011963,-0.5527659646682092,-5.005525315398558,1.7622620443424721,11.007345830890925,0.0
4.929915189743042,-0.5625129758860066,-5.003356762860828,1.7530241692785256,11.179269038197141,0.0
4.979552268981934,-0.5719231824403549,-5.001828119125738,1.744437725206119,11.352142265442655,0.0
5.02794075012207,-0.5805548757261192,-5.000843711980687,1.7368110422945187,11.526033332252236,0.0
5.076746702194214,-0.5884812705143665,-4.9998786310053625,1.7297810267284974,11.70096485427485,0.0
5.127386569976807,-0.5957619840582555,-4.998934417739311,1.7232975298421869,11.8770379594421,0.0
5.173909425735474,-0.6020446907377159,-4.997738323217284,1.7174867709275219,12.054180717355049,0.0
5.2209248542785645,-0.6077027246710323,-4.996286363175258,1.7120391994161377,12.23240531713287,0.0
5.272621393203735,-0.6130283849115388,-4.99455773019081,1.7067030613857208,12.411847998443077,0.0
5.3189027309417725,-0.6177511858716993,-4.993425420400524,1.7022061714307852,12.592477356445126,0.0
5.368431091308594,-0.6220729766481137,-4.992665394185109,1.698254240829702,12.774422473852214,0.0
5.418196678161621,-0.6261452060517552,-4.992128890937856,1.6946376400541074,12.95769910092481,0.0
5.479483604431152,-0.6296383181614398,-4.991684749214928,1.6915465647971035,13.142767060494009,0.0
5.536381721496582,-0.6326355457385279,-4.991137903719563,1.6887983582912982,13.329489564362456,0.0
5.583947420120239,-0.6354685940473006,-4.99012701995919,1.6859114666804176,13.517481488819861,0.0
5.632677316665649,-0.6379621147133889,-4.989128865942603,1.6833071954925292,13.70685213332018,0.0
5.676921844482422,-0.6400904049309699,-4.987661285867362,1.680722738098698,13.897420391046225,0.0
5.731205940246582,-0.6421554628468664,-4.985768038938098,1.6779393355149856,14.089474064523593,0.0
5.784473657608032,-0.6449594536564452,-4.983749516215075,1.6744843961316667,14.282847671968351,0.0
5.8323280811309814,-0.6479087621383354,-4.982030465773414,1.6710878346781886,14.477434815008147,0.0
5.885846853256226,-0.6517021740362573,-4.9806837329942395,1.6672275224629878,14.673308966166845,0.0
5.942037582397461,-0.6555531878773946,-4.979923223158354,1.6636666594939307,14.870664842147843,0.0
5.9882941246032715,-0.6597099601135417,-4.980020985854344,1.6603669846554296,15.06919067429673,0.0
6.042574167251587,-0.6641174581669543,-4.982059577722279,1.6580178466380815,15.269331299237617,0.0
6.0916242599487305,-0.6703307931749252,-4.984698026555619,1.6545846618052984,15.470568393808307,0.0
6.144810676574707,-0.6783142990958417,-4.986493287580824,1.6492489498000413,15.672718226338,0.0
6.204714298248291,-0.6834397023652975,-4.989166273432699,1.6467485945962455,15.876824935342363,0.0
6.257208347320557,-0.6870443556026927,-4.988629357189943,1.6435451104404004,16.082183580708595,0.0
6.313214540481567,-0.6938720471881321,-4.984561872938918,1.6356443105887999,16.287909574584706,0.0
6.363839149475098,-0.7015563185208495,-4.98173417212681,1.6278077216596076,16.49430824628474,0.0
6.411362171173096,-0.7095088498882938,-4.979983165240422,1.6204118034225963,16.701350371829527,0.0
6.457858562469482,-0.7157568889455332,-4.979043695716081,1.614870560265515,16.909371316034008,0.0
6.501671552658081,-0.7136856955916345,-4.974956836673961,1.6140462580430817,17.119176171412587,0.0
6.544715881347656,-0.7138080975172104,-4.973148831372641,1.6128571722301497,17.330170552787408,0.0
6.587900161743164,-0.7149254130304744,-4.97225071792626,1.6114242621305614,17.54234494672043,0.0
6.634981870651245,-0.7155556677960285,-4.971771519742802,1.6106325245424984,17.75599710675981,0.0
6.678978443145752,-0.7160419104782246,-4.971512277777939,1.6100883458747495,17.97101797448056,0.0
6.730278968811035,-0.7162511540972644,-4.97142999201406,1.6098718361226902,18.187694547796372,0.0
6.7867279052734375,-0.7162699337198464,-4.971429421766827,1.6098565167572791,18.406206477897616,0.0
6.840410470962524,-0.7162816323007368,-4.971426503909965,1.6098454273833867,18.62644544568329,0.0
6.887878656387329,-0.7162881238370179,-4.9714209916254655,1.6098369246518374,18.848211827148685,0.0
6.9399988651275635,-0.7162931607001147,-4.971417528443438,1.6098308183882115,19.07165570112139,0.0
6.984619617462158,-0.7162992900418093,-4.971411708131751,1.6098224186048005,19.296534802827935,0.0
7.033038139343262,-0.716302604518474,-4.97140849771603,1.6098178383286006,19.522972555401118,0.0
7.087243318557739,-0.7163074684055062,-4.971405820227919,1.6098123441085166,19.751154640337656,0.0
7.136651992797852,-0.7163129752505837,-4.971400876020882,1.6098049693811187,19.980926257138577,0.0
7.182580947875977,-0.7163173234583671,-4.971396427581668,1.6097988177320537,20.2121758501057,0.0
7.229022741317749,-0.716322719865593,-4.971390937410734,1.6097912016211835,20.444919430629685,0.0
7.275876760482788,-0.7163310348447228,-4.971388193881795,1.6097829155869918,20.679170243272196,0.0
7.325082302093506,-0.7163345130606182,-4.971386711202857,1.6097792473071653,20.915005192319285,0.0
7.379595041275024,-0.7163385882820924,-4.971379806617725,1.6097718312351912,21.152593730137845,0.0
7.429347515106201,-0.716342067648517,-4.9713774023609165,1.609767605931467,21.39178377123009,0.0
7.491562366485596,-0.7163482039890202,-4.971371436452353,1.6097591127115018,21.6329751320163,0.0
7.543193101882935,-0.7163524025715913,-4.9713673310157755,1.6097532873544433,21.875828150953076,0.0
7.599372625350952,-0.7163572863043134,-4.971361909263853,1.6097461213473208,22.120488644811935,0.0
7.651617050170898,-0.7163641683443704,-4.971359641570951,1.60973926509329,22.366830127798078,0.0
7.707122325897217,-0.7163681400084044,-4.971355389009357,1.6097335319061359,22.61495782085106,0.0
7.769678354263306,-0.7163720802307236,-4.971349464285549,1.6097268147667239,22.865098339710013,0.0
7.811976194381714,-0.716378177310587,-4.971345319027345,1.6097194514824087,23.11659940329355,0.0
7.857952833175659,-0.7163827931864497,-4.971341910225705,1.6097137137356887,23.3695799203917,0.0
7.913217782974243,-0.716387831817336,-4.971337788828545,1.6097072088777282,23.624338543200953,0.0
7.97544527053833,-0.7163923882290125,-4.971335223895699,1.6097020277607053,23.881099835298762,0.0
8.029821634292603,-0.7163966839356023,-4.97132918816055,1.6096949601661028,24.13961039454902,0.0
8.080531120300293,-0.7164023155266449,-4.9713270222430905,1.6096891624549716,24.39975268382923,0.0
8.14297604560852,-0.7164041382418485,-4.971323284693968,1.6096854536558782,24.661904917371324,0.0
8.203073740005493,-0.7164044458505285,-4.97132160704966,1.6096841960315764,24.92599195779375,0.0
8.263211965560913,-0.7164060911156819,-4.971318230422511,1.6096808465270507,25.19201430095803,0.0
8.311611413955688,-0.7164117003778363,-4.971314515748624,1.6096741320624188,25.459593343262647,0.0
8.372287034988403,-0.7164159320241215,-4.97131107396702,1.6096686808074732,25.729124964243532,0.0
8.427683591842651,-0.7164171202046579,-4.971304067472453,1.6096635054545518,26.00043914134455,0.0
8.475152730941772,-0.7164198846384402,-4.9713014913286955,1.6096597465330813,26.273281011092415,0.0
8.537670612335205,-0.716421179367403,-4.971297968812731,1.6096565885294618,26.54813505106517,0.0
8.582030534744263,-0.7164237709401305,-4.971295168897101,1.609652832423937,26.82441646994081,0.0
8.641467332839966,-0.7164235933628352,-4.9712926146836685,1.6096514327687885,27.10261133820292,0.0
8.700330018997192,-0.7164230331132225,-4.971290839508845,1.6096508083544259,27.382701141624068,0.0
8.744516372680664,-0.7164211480604792,-4.971287108138425,1.609650059976479,27.664213292723158,0.0
8.805203199386597,-0.7164249866506773,-4.971286323310507,1.6096465254038719,27.947678230814883,0.0
8.893950700759888,-0.716424530621645,-4.9712796741284855,1.6096428768410096,28.233999553719553,0.0
8.973818302154541,-0.7164266855059019,-4.9712786750998115,1.6096405556474431,28.52289176067905,0.0
9.037824153900146,-0.7164215383609361,-4.971280489454858,1.609645754934723,28.813846194610655,0.0
9.125214338302612,-0.7164228661842635,-4.971277838676977,1.609643096577512,29.1076126853977,0.0
9.186618566513062,-0.716419991746501,-4.971277954627494,1.6096454587061775,29.403356904224108,0.0
9.243277072906494,-0.7164225503239847,-4.971277522767651,1.6096431578304704,29.700924223002733,0.0
9.29347276687622,-0.7164245964495441,-4.971270367757607,1.6096372087783362,30.00010601547208,0.0
9.34570574760437,-0.7164211199454704,-4.971270773272102,1.6096402257444449,30.300970804984495,0.0
9.397219896316528,-0.71642184256776,-4.971268415203887,1.6096382266241736,30.603493087099018,0.0
9.446425676345825,-0.7164153717627453,-4.97126933370514,1.6096439408897232,30.90760130376196,0.0
9.493947982788086,-0.7164121493408244,-4.971266684273846,1.6096449118796834,31.213239097117473,0.0
9.542112350463867,-0.7164153798092882,-4.971264584167831,1.6096410685767322,31.520426226142305,0.0
9.601214408874512,-0.7164160797266542,-4.971263566152744,1.6096398961631249,31.829516066990376,0.0
9.655885696411133,-0.7164199679225122,-4.971260739140324,1.6096350897465717,32.14036463138263,0.0
9.711397647857666,-0.7164163752344589,-4.971261342362086,1.6096383186707652,32.45300171821445,0.0
9.782151222229004,-0.7164117838997102,-4.971260587998792,1.6096415247847216,32.76791717495895,0.0
9.836444616317749,-0.7164110439585941,-4.9712596456056,1.6096415462000793,33.08458017227117,0.0
9.892716884613037,-0.7164113237110555,-4.971255411264984,1.609638768111876,33.40305390402092,0.0
9.948367834091187,-0.7164099573903286,-4.9712568804624455,1.6096407441824834,33.723320070499874,0.0
9.995753049850464,-0.7164062235647832,-4.971254852710779,1.609642498139714,34.045112023862956,0.0
10.051161527633667,-0.7164062393804654,-4.97125119730214,1.6096402798644915,34.368686887159825,0.0
10.133670330047607,-0.7164018071344256,-4.971249535176511,1.6096428114051755,34.694918937017235,0.0
10.184135437011719,-0.716403331087485,-4.971246518762031,1.6096397760526016,35.02277441768578,0.0
10.239112138748169,-0.7164003384315073,-4.971247290752367,1.6096426283410121,35.35240093617863,0.0
10.300853729248047,-0.716403522058193,-4.971242412728033,1.6096371462122707,35.684013115864,0.0
10.359499454498291,-0.7163950529929802,-4.971245781931246,1.6096459327753203,36.0175165315744,0.0
10.418914556503296,-0.7163972628983049,-4.971240653627304,1.6096410761264004,36.35293028954246,0.0
10.484054565429688,-0.7163884285704422,-4.971248853052614,1.6096530684790056,36.69044531690466,0.0
10.541635513305664,-0.7163906540069166,-4.971245037098469,1.609648991304998,37.02981155329486,0.0
10.600071907043457,-0.7163877368341665,-4.971245841708788,1.6096518030885825,37.37106033815434,0.0
10.662268877029419,-0.7163868870132322,-4.971246157860598,1.6096526715383523,37.71431141481263,0.0
10.719417572021484,-0.7163816635804665,-4.971248683841865,1.6096583610993378,38.059403990680316,0.0
10.773847818374634,-0.7163792865629048,-4.971251834248412,1.6096621575646433,38.40624947103488,0.0
10.830882787704468,-0.7163809374280369,-4.971252062531501,1.6096609788305796,38.7549303363425,0.0
10.875725507736206,-0.716385351226049,-4.971258900832969,1.6096615852390652,39.105055149857385,0.0
10.92704153060913,-0.7163959443176604,-4.971260801518033,1.6096542847237736,39.45682959694912,0.0
